0.	0.
13.809421852531958	1000.
13.962464524508164	793.8843288534626
14.123611837562773	780.8606910547869
19.686652689701468	45.463172386867384
19.686652689701468	45.46317245506873
19.802399863911933	44.69344529130714
19.802399863911933	44.69351968512132
19.910531953988908	90.49593233889631
19.910531953988908	77.41367523450502
24.311510686912527	133.0648251581442
24.311510686912527	133.06493730120954
24.311510686912527	133.03163967157818
24.311510686912527	133.031520441707
27.824659289595832	700.0936643923674
28.13778905379678	837.6307236069812
28.467677712693202	711.1399111873002
31.258580300569633	178.34815405115717
31.258580300569633	178.34804946280696
31.33385518251791	172.85330783444644
31.33385518251791	172.85345483272582
31.470281389493017	139.61759421313806
31.470281389493017	139.6175951224774
31.61523676770939	117.1478739856523
31.61523676770939	116.2365483311
31.768617455057903	144.1563517399627
31.768617455057903	144.15622650454398
31.83831040378234	160.63672523521944
31.83831040378234	159.60763521435325
34.45146322656106	9.673777479679865
34.45146322656106	9.673899814410289
34.45146322656106	10.54414717891687
34.45146322656106	10.544042329856257
34.64575890656958	12.646692382483426
34.64575890656958	12.6466753176707
34.64575890656958	10.433567531771935
34.64575890656958	10.433553616157575
34.851569686688066	16.114804009496215
34.851569686688066	16.11484728764408
34.851569686688066	14.700859335212737
34.851569686688066	14.700819370464353
39.986472057629726	253.29943138989995
39.986472057629726	253.2993376444606
40.22925866158572	227.9617075914469
40.22925866158572	227.96176868074312
40.45620377260552	259.1535416435429
40.45620377260552	258.985548653229
42.28090271755498	75.41608571707468
42.61094888834837	69.72487756316443
42.61094888834837	69.72490012345176
42.61094888834837	70.5681567949105
42.61094888834837	70.56820997775625
42.76995531484561	51.14864955020739
42.78393645644334	84.25304731485963
42.78393645644334	84.25300608513153
42.78393645644334	80.41050532571161
42.78393645644334	80.41039521168433
42.94590995792593	61.89175310762336
42.94590995792593	61.8916996078208
42.94590995792593	60.70856827957748
42.94590995792593	60.70861341886246
43.28570499270108	39.24531069208412
44.739906978181544	1.964991012001153
44.739906978181544	1.9649979981003014
44.795431859037734	2.0533454092554058
44.795431859037734	2.0532991450733973
45.155824113262156	4.657387654539542
45.155824113262156	4.657387622788651
45.262676080989614	7.388721300926796
45.262676080989614	8.947834151795176
45.650055618770246	9.175627092987247
45.650055618770246	9.175627316447072
45.701395916024175	21.052506601867428
45.701395916024175	17.616917989336788
47.15003329912018	12.969674499704004
47.15003329912018	12.969629567593929
47.15003329912018	12.466056890401697
47.15003329912018	12.466018901368654
47.54952839090368	17.365997058293956
47.54952839090368	17.365985708400032
47.54952839090368	17.238873765996765
47.54952839090368	17.238886408202603
47.97206210544964	9.937291226595073
47.97206210544964	10.567335519540505
47.97206210544964	9.937267985486157
47.97206210544964	10.567317338046845
49.81315226827803	119.84881295070518
49.81315226827803	117.50335048815289
49.81315226827803	117.50331982493665
49.81315226827803	119.8487709104591
51.56170824103823	40.14257723513741
51.56170824103823	40.14253617225313
51.76111958577294	40.49732743797795
51.76111958577294	40.49725172893535
51.7957843064421	38.86444780584632
51.7957843064421	38.8644269696943
52.180771135498894	37.561260365207076
52.180771135498894	37.61019029143918
52.24226559312971	27.71677233104004
52.24226559312971	27.716786238427435
52.4278583619813	21.752053841798222
52.4278583619813	22.310051492977838
53.7405297216324	1.646276803770219
53.7405297216324	1.2306478732390993
53.7405297216324	1.6462941891132132
53.7405297216324	1.2306234322600988
53.88587482220419	3.2182849546845596
53.88587482220419	3.1769157363141036
53.88587482220419	3.2182484625657204
53.88587482220419	3.176869364170563
53.967946687768965	2.4692097499060623
53.967946687768965	2.469185953202977
53.967946687768965	2.8131798017520313
53.967946687768965	2.81319962260021
54.24875909576084	3.753040450632143
54.24875909576084	3.7530486367231397
54.24875909576084	4.174834509834512
54.24875909576084	4.174825556217093
54.35382838263294	10.423728963935343
54.35382838263294	10.423687470959758
54.35382838263294	11.408029618657112
54.35382838263294	11.407991543055106
54.48930531102608	6.60128233244221
54.48930531102608	6.6012774614362115
54.48930531102608	5.101607824931295
54.48930531102608	5.101607777036566
57.48498103312101	84.47972196646421
58.17921418985413	88.9877837948423
58.91262697925014	58.698186333348104
59.470982296442905	22.34965640881017
59.470982296442905	22.34966959828032
59.516367291517106	21.832788659684365
59.516367291517106	21.8327573923382
59.94986823105557	24.64911529978283
59.94986823105557	24.6490717352444
59.94986823105557	24.79068471244623
59.94986823105557	24.790687082559106
60.108500012155	20.133268304784192
60.108500012155	20.13326817667934
60.16180235497962	27.882279699791475
60.16180235497962	27.882269280906705
60.16180235497962	26.561703516470388
60.16180235497962	26.561671721836355
60.195928526586805	17.78919993527755
60.195928526586805	17.63110810083369
60.38694096897322	16.932048408787534
60.38694096897322	16.93205326780322
60.38694096897322	17.047632551412455
60.38694096897322	17.04764093909279
60.827564208495886	19.546977400301255
60.827564208495886	19.546991260751565
60.86961984708726	33.98851807881819
60.86961984708726	34.39032791727908
61.46169326543968	2.179484750746806
61.46169326543968	2.1794780072789797
61.46169326543968	1.8112045400558225
61.46169326543968	1.8112147836975168
61.709551385119994	0.7681670125438104
61.709551385119994	0.7681647354039747
62.08697774567085	2.0085839782404573
62.08697774567085	2.0085860218636467
62.08697774567085	1.5901404766805272
62.08697774567085	1.5901388800711016
62.10846633098977	2.236531540704571
62.10846633098977	2.2365602311646176
62.48182955677847	6.171099602064269
62.48182955677847	7.509677787931493
62.74872764032799	5.896003299522429
62.74872764032799	5.542872782739259
62.74872764032799	5.8959904777012655
62.74872764032799	5.542860674732183
63.658976171172775	4.770516359597554
63.658976171172775	4.770501684860338
63.658976171172775	4.637844559261369
63.658976171172775	4.637830066401447
64.00751699431322	2.6909449573132123
64.00751699431322	2.7197636375427647
64.00751699431322	2.6909366868941285
64.00751699431322	2.719772727087915
64.33395965108566	3.864482702176875
64.33395965108566	3.5889190267176443
64.33395965108566	3.5889115429450307
64.33395965108566	3.8644770171126757
65.20728296913369	55.07189006062522
65.20728296913369	55.07187187530566
65.37945351763906	49.30028736736754
65.37945351763906	49.300236836798064
65.6918338864079	51.25275822288125
65.6918338864079	51.252775418324006
66.02423227988123	51.7513575827864
66.02423227988123	51.65077322109256
66.37650437439157	35.25686586167709
66.37650437439157	35.256868799097376
66.53675907279917	38.71664073244815
66.53675907279917	38.87060101215199
67.10097788200376	14.581827971657837
67.10097788200376	14.58180777139175
67.10097788200376	14.552130542664573
67.10097788200376	14.552134776806385
67.22826139183567	18.316211015034458
67.22826139183567	17.65623162486171
67.22826139183567	18.31622627520449
67.22826139183567	17.65623023866489
67.57859239488401	15.236852621096086
67.57859239488401	15.366179795678445
67.57859239488401	15.366189944743637
67.57859239488401	15.236847298011849
67.82447307777392	14.134104260331101
67.82447307777392	13.775967550092762
67.82447307777392	14.13409451520986
67.82447307777392	13.775959475271867
68.21166576126744	25.152773284971463
68.21166576126744	25.15278737048572
68.21166576126744	23.688575749237128
68.21166576126744	23.688596295061085
68.33027994151828	13.219993752574721
68.33027994151828	13.219984903821908
68.33027994151828	13.954956838256626
68.33027994151828	13.954970128593809
69.32739255653006	1.355002067210154
69.32739255653006	1.3549850399206271
69.32739255653006	1.397403194495932
69.32739255653006	1.3974161127931615
69.53621667661407	2.0251123806679225
69.53621667661407	1.5447375483635577
69.53621667661407	1.544718840091967
69.53621667661407	2.0251284742426776
69.73210523812222	4.964928764923091
69.73210523812222	4.463126022324561
69.73210523812222	4.964914555472366
69.73210523812222	4.4631417453621465
72.63710001506095	34.695324533402136
72.63710001506095	34.69528967191662
72.63710001506095	35.16940255778979
72.63710001506095	35.16941868745857
73.09831062700499	32.90025570559665
73.09831062700499	33.56072934344471
73.09831062700499	32.90024653925657
73.09831062700499	33.560739481649414
73.58809378896981	25.881328572857736
73.58809378896981	25.047332543902233
73.58809378896981	25.047331108600716
73.58809378896981	25.881318806336402
73.89633892407284	9.669255455339306
74.24010175959282	10.699222869071296
74.24010175959282	10.699216587230367
74.50707032668478	11.63737287107826
74.50707032668478	11.6373613377548
74.60544402427554	7.937181231353094
74.60544402427554	7.937162511839929
74.84981061137145	8.935243864556028
75.15529839955785	11.36947729300398
75.15529839955785	11.369484214478058
75.21409374570632	6.889512716971229
75.21409374570632	6.693953491959198
75.49700221928794	16.666620637041724
75.49700221928794	16.923459949331214
75.65085721911437	0.9529393826804535
75.65085721911437	0.9529388066756868
75.69121521817307	0.9500772225212842
75.69121521817307	0.9500782771056461
75.86021255497515	3.4765854147930724
76.03209965124775	0.8823550458639037
76.03209965124775	0.8823503937226134
76.03209965124775	1.0827253126125949
76.03209965124775	1.0827282214597758
76.29688300748892	0.5754901287448086
76.29688300748892	0.5754950324941034
76.29688300748892	0.4209246209537631
76.29688300748892	0.4209176327790538
76.35422761745113	3.7471744781971
76.35422761745113	3.747175901311322
76.35422761745113	3.2577068082413247
76.35422761745113	3.257701084596698
76.55892768380696	0.77009698546311
76.55892768380696	0.7700969872269429
76.63688175435333	1.1488399585017153
76.63688175435333	1.4520425196849471
76.89984210490806	2.7094839343447585
76.89984210490806	2.7094966059249033
76.89984210490806	2.771690828321495
76.89984210490806	2.771675472830381
76.9204906511417	1.5606109768910097
76.9204906511417	1.5606109819997915
76.9204906511417	2.1071439644549024
76.9204906511417	2.107142450972189
77.20133948636747	2.7776455130502073
77.20133948636747	2.777651093854374
77.20133948636747	2.967307345132975
77.20133948636747	2.9673133000732546
77.43179834178855	3.543836485675447
77.43179834178855	3.461873832662022
77.43179834178855	3.461889970310414
77.43179834178855	3.54384373681759
77.56197291202976	2.7396566879768454
77.56197291202976	2.739659706422585
77.59958163183789	5.7891550750038405
77.59958163183789	6.655100696279841
78.33338357061204	3.105429014613546
78.33338357061204	3.105427148633105
78.33338357061204	3.1469016650561703
78.33338357061204	3.146899951839938
78.35277397090056	1.4065416612146617
78.35277397090056	1.40653704000296
78.35277397090056	1.4034340129245346
78.35277397090056	1.403438240346839
79.2900355897791	0.6975155617904565
79.2900355897791	0.4921087044523807
79.2900355897791	0.49210716428391504
79.2900355897791	0.697515926910654
80.83999604376768	7.360361917706315
80.83999604376768	7.360366538459527
80.99839126726044	7.469153973364296
80.99839126726044	7.469132962634286
81.33291853821756	9.961187101653035
81.33291853821756	9.961178682000007
81.33291853821756	9.576701846977093
81.33291853821756	9.576700987421642
81.53063780214495	6.050970228918219
81.53063780214495	6.038476820160024
81.53063780214495	6.038462708723187
81.53063780214495	6.050959826774042
81.59290013543439	8.881925732562472
81.59290013543439	8.986957927085331
81.59290013543439	8.881940730590685
81.59290013543439	8.986958079459445
81.62042842772894	8.59532500129558
81.62042842772894	8.595320449939788
81.9269069684646	8.801304252255695
81.9269069684646	8.72647958186209
81.97598815821034	6.2265933496820685
81.97598815821034	6.264276760834974
81.97598815821034	6.226594825464496
81.97598815821034	6.264280125016467
82.06694262202458	8.652347776419372
82.06694262202458	8.65235323543029
82.06694262202458	8.958871610286273
82.06694262202458	8.95886804548299
82.25231901501337	13.902851137028932
82.25231901501337	13.902857711656408
82.25231901501337	13.036080620830383
82.25231901501337	13.036090858251507
82.59029293093586	0.7203207238140334
82.59029293093586	0.9226369920655935
82.59029293093586	0.9226341568614852
82.59029293093586	0.7203215944093336
82.60733623590242	3.330904239470326
82.60733623590242	3.3309023143935446
82.70857245620428	1.1422374572363727
82.70857245620428	1.1422529092373475
82.70857245620428	0.9893524239905048
82.70857245620428	0.989337132145678
82.75545773016135	2.875038226026533
82.75545773016135	2.6872360481129594
83.36742881062256	0.7166954908421286
83.36742881062256	0.7166991711591719
83.36742881062256	0.598614038060833
83.36742881062256	0.5986186718808729
83.59640254955744	0.9067493305772147
83.59640254955744	0.906750960064062
83.59640254955744	1.0283024463132877
83.59640254955744	1.0283006092449314
84.31135037747063	5.221242416250207
84.31135037747063	5.22124621696053
84.31135037747063	5.590935730253447
84.31135037747063	5.590940253597221
84.42207116228322	2.1203316802107004
84.42207116228322	2.1203293579231883
84.42207116228322	2.6448486478327657
84.42207116228322	2.6448482100459105
86.2855055922885	22.839946680776066
86.2855055922885	22.839938812155506
86.91225247756736	15.75244468397591
86.91225247756736	15.752463406316444
87.50061316804936	16.49927102114129
87.50061316804936	16.580068892492438
87.80628370368929	5.998582173695646
87.80628370368929	5.99859869218694
87.80628370368929	6.218870120674572
87.80628370368929	6.2188976408717105
88.01967604030692	6.359161194811168
88.01967604030692	6.359159765268255
88.01967604030692	6.367471413811186
88.01967604030692	6.3674801138130945
88.57797597304571	7.812568471665872
88.57797597304571	7.812576750746504
88.57797597304571	8.243251703842025
88.57797597304571	8.243249891857467
88.606470283807	10.588715722411003
88.606470283807	10.588708542608465
88.606470283807	11.170739905728517
88.606470283807	11.170752113290993
89.15750753710435	5.947819868008562
89.15750753710435	5.94781622896949
89.15750753710435	6.328628176501109
89.15750753710435	6.328633856928563
89.34325608976685	0.5854642940097925
89.34325608976685	0.5854646384000315
89.39926326372945	2.7032809986205004
89.39926326372945	2.6768995023142486
89.39926326372945	2.703282438149184
89.39926326372945	2.6768973669339977
89.6951914521738	1.090090988901672
89.6951914521738	1.090095215339319
89.9309293638376	0.261902691309262
89.9309293638376	0.2619034056008582
90.02575102756191	2.3805413542622036
90.02575102756191	2.3805419687801743
90.02575102756191	2.041287376933969
90.02575102756191	2.0412908623833266
90.28285294864439	0.9780764380474564
90.28285294864439	0.7175531949871928
90.28285294864439	0.7175611673225228
90.28285294864439	0.9780833027551538
90.55657799032413	1.7660359281204607
90.55657799032413	1.766026835864144
90.55657799032413	1.7326631378605348
90.55657799032413	1.732655815432897
90.61342165517442	2.4173507987741116
90.61342165517442	1.9260636975748122
90.9085297288942	1.3628272316463228
90.9085297288942	1.362832099818424
91.07529687882338	2.18262509991918
91.07529687882338	2.1826151088842147
91.07529687882338	2.2361182424687565
91.07529687882338	2.236113843935366
91.2391463892586	4.299389583964574
91.2391463892586	3.7035532628126124
91.38818949658118	1.2881345635163637
91.38818949658118	1.429187540439149
91.38818949658118	1.4291780961899883
91.38818949658118	1.2881510586729492
91.66312620634743	1.5527616211374928
91.66312620634743	1.5800251440475295
91.66312620634743	1.5800297507455083
91.66312620634743	1.5527669077953699
92.27013596562442	1.1711385396088876
92.27013596562442	1.279025960710828
92.27013596562442	1.17113625601863
92.27013596562442	1.279024275429624
92.32561509015967	20.61455111428841
92.6022470002717	0.16842861226415823
92.6022470002717	0.23505022970757652
92.6022470002717	0.23504993715593545
92.6022470002717	0.16843012318815345
92.89641538145655	0.460194265021259
92.89641538145655	0.460194448174025
92.89641538145655	0.31227569767343316
92.89641538145655	0.3122766855117097
93.21765119387493	17.26061756930524
93.21765119387493	17.52065472439062
93.21765119387493	17.26063494184831
93.21765119387493	17.520662225799633
93.6496767290053	20.256742766722812
93.68773566978611	13.607674481556089
93.68773566978611	13.237219278803076
93.68773566978611	13.607660903234883
93.68773566978611	13.237235070565882
94.02113757858693	5.038225105431089
94.02113757858693	5.038221370167109
94.06033751352896	4.8865691069569595
94.06033751352896	4.8865791767339015
94.12950849320548	12.746549286142479
94.12950849320548	13.219081409855528
94.12950849320548	12.746549187091134
94.12950849320548	13.219085638717235
95.06147939846106	8.759139152823773
95.31094329114893	5.182725529974952
95.31094329114893	5.182725557332073
95.38710613614697	4.695284839832722
95.38710613614697	4.650515550987437
95.75949540820841	0.602883586851499
95.75949540820841	0.6028758069657565
95.75949540820841	0.776970944136344
95.75949540820841	0.7769790863107462
96.28371261516304	0.6948845308545154
96.28371261516304	0.6948742110802373
96.28371261516304	0.8086790873942418
96.28371261516304	0.8086685955543033
96.48044436472415	0.9268148469357167
96.48044436472415	0.9268113230437847
96.48044436472415	1.300153631738097
96.48044436472415	1.300150822442089
96.72647156671547	4.526346029517791
96.72647156671547	4.526347606820209
96.76345622803657	12.349859963387958
96.76345622803657	12.599790120633692
96.87527022652351	0.5677248882675648
96.87527022652351	0.5677206875794426
96.87527022652351	0.5387407870690846
96.87527022652351	0.538746707200686
97.05310431562954	0.5552955853990997
97.05310431562954	0.5552961200139165
97.05310431562954	0.41759534521743674
97.05310431562954	0.4175957615980379
97.25732873146427	2.0255950227137127
97.25732873146427	1.7767383085428075
97.25732873146427	2.0255999392304234
97.25732873146427	1.7767326657944298
97.70312004274827	1.1797201567404156
97.70312004274827	1.1797242805932902
97.70312004274827	1.4464862679163175
97.70312004274827	1.4464881220993642
97.88847663667266	4.010838245497744
97.88847663667266	3.71540484891725
97.88847663667266	4.0108412103111535
97.88847663667266	3.715407343601421
98.43432037829561	3.1009167997260514
98.43432037829561	3.166147475530676
98.43432037829561	3.166151757622672
98.43432037829561	3.1009213205184394
99.13507312784071	18.0493860333043
99.13507312784071	18.049379605371307
99.29352778847999	16.37363553835647
99.29352778847999	16.37359511158335
100.32757075500716	16.140694449749265
100.32757075500716	16.14068873772609
100.63604338115348	16.247908351583693
100.63604338115348	16.189289584919997
100.89390226830669	4.35405767273152
100.89390226830669	4.354048800977663
100.89390226830669	4.382752947715049
100.89390226830669	4.382768676638808
101.01338661963598	5.642127329666459
101.01338661963598	5.6421580543136685
101.01338661963598	5.548363451370735
101.01338661963598	5.548397342983569
101.26574695617191	4.490470500834371
101.26574695617191	4.490467775200059
101.60299921161746	4.965918600195632
101.60299921161746	4.965915419173823
101.76186320161975	7.442059572280226
101.76186320161975	7.442054467797922
101.9044009670914	4.425088987908723
101.9044009670914	4.425105187619394
101.91196992671273	7.791562709295413
101.91196992671273	7.84272656744316
101.96249721999125	3.7176005270491177
101.96249721999125	3.706513098195743
101.96249721999125	3.717606839910969
101.96249721999125	3.7065043557296478
102.0932929574993	5.077210197502365
102.0932929574993	5.111162545761312
102.0932929574993	5.077212132256854
102.0932929574993	5.111158922826514
102.24243680781389	8.566980968232205
102.24243680781389	8.08747201842823
102.24243680781389	8.566971358519275
102.24243680781389	8.087466496811272
102.32605158477963	4.692422374526208
102.32605158477963	4.841725329890602
102.32605158477963	4.841728420502744
102.32605158477963	4.692424933993147
102.5056524498477	5.332266179609516
102.5056524498477	5.557560978792087
102.5056524498477	5.557559018809693
102.5056524498477	5.33226241345861
102.60279675660347	1.972529559644686
102.60279675660347	1.9725338363636375
102.84446795240028	8.194150243367575
102.84446795240028	8.025965287453559
103.03747659333547	0.4458028785619947
103.03747659333547	0.587808156967089
103.03747659333547	0.5878062015243303
103.03747659333547	0.445803564870282
103.20568450774478	1.8471853802849236
103.20568450774478	1.7155639582421376
103.37701602668326	0.5452342863867163
103.37701602668326	0.4294257267146861
103.37701602668326	0.4294279020511391
103.37701602668326	0.5452330557366745
103.49676456171458	11.25515739125056
103.49676456171458	10.50265807538834
103.49676456171458	10.502655513966998
103.49676456171458	11.255152569851626
103.61010701080706	4.584552910221137
103.61010701080706	4.584549491952798
103.61010701080706	4.097217590149842
103.61010701080706	4.097218977295656
103.64027872816993	1.5846852063643635
103.64027872816993	1.4356204872449583
103.64027872816993	1.435641625602776
103.64027872816993	1.5847070284723228
104.34363229247926	3.6213191714286554
104.34363229247926	3.62132448019868
104.34363229247926	3.2642355586872713
104.34363229247926	3.2642324928767903
104.549137987484	1.5138833107183765
104.549137987484	1.4055810255212255
104.549137987484	1.4055783674333173
104.549137987484	1.5138804333557851
104.91302187599881	1.7423856139070664
104.91302187599881	1.3576937185313804
104.91302187599881	1.7423854290385545
104.91302187599881	1.3576922089169328
105.10531472331866	1.0096996434275956
105.10531472331866	1.1281788464748541
105.10531472331866	1.1281716138799782
105.10531472331866	1.009686622936639
105.71489156830938	0.7230872381538658
105.71489156830938	0.7230851544528443
105.71489156830938	0.7349096024827432
105.71489156830938	0.7349124179606996
106.24088755438498	15.193485799824055
106.24088755438498	15.10566639225722
106.24088755438498	15.193435830770124
106.24088755438498	15.10562936808456
106.36587959536084	0.13465997541760577
106.36587959536084	0.19661517764992303
106.36587959536084	0.13465880708092498
106.36587959536084	0.19661486102625875
107.46898455069177	13.993543785142878
107.46898455069177	13.993539800771833
107.46898455069177	13.68278593345147
107.46898455069177	13.6827812250277
107.8479756951933	4.2031986069570895
107.8479756951933	4.203195504537962
108.21807884807933	3.11362743149993
108.21807884807933	3.1136504231998927
108.43772408376354	4.254105460467416
108.43772408376354	4.254094097435313
108.43772408376354	4.422411168735364
108.43772408376354	4.422430563086538
108.78564069849125	6.990144172775709
108.78564069849125	7.3763053245768955
108.78564069849125	6.990139472916141
108.78564069849125	7.376309159652662
108.78652469102497	5.7274018145697925
108.78652469102497	5.47327463913299
108.78652469102497	5.473275268830377
108.78652469102497	5.727396503243158
108.89291532640233	5.069847892977631
108.89291532640233	5.069853378538246
108.9330638142924	4.501586093540372
108.9330638142924	4.162753814674219
108.9330638142924	4.501614400529257
108.9330638142924	4.162768875325138
109.61583792831172	3.045614414338623
109.61583792831172	3.1506029714587727
109.65616397681933	1.8942251267382875
109.65616397681933	1.8942204346684266
109.65616397681933	1.8679965045546483
109.65616397681933	1.8680005783215643
109.67721960163513	0.5101576410510381
109.67721960163513	0.6682587399780993
109.67721960163513	0.6682519550633759
109.67721960163513	0.5101640675162681
109.75050960030268	7.63666477713182
109.75050960030268	8.227756327113202
109.75050960030268	8.227753302429273
109.75050960030268	7.636670209725744
110.00978670500668	1.449018044782578
110.00978670500668	1.8458158756259793
110.00978670500668	1.449035064220252
110.00978670500668	1.8457924501758445
110.12487032333345	1.9874619533059346
110.12487032333345	1.987462821718355
110.12487032333345	1.970355048657809
110.12487032333345	1.9703564284466255
110.38760362604768	4.521961331768021
110.38760362604768	4.521953645108903
110.73393923427459	0.29827558654483455
110.73393923427459	0.20838313041299397
110.73393923427459	0.29827776301865866
110.73393923427459	0.20837991527810668
110.7406591179395	10.872319895164376
110.7406591179395	10.63084472731094
111.38400936247609	0.7130926459805316
111.38400936247609	0.7130926212999424
111.38400936247609	1.0312954447858285
111.38400936247609	1.0312946099038922
112.20460783059274	2.9098799364360866
112.20460783059274	2.909886690834533
112.20460783059274	2.745173110997318
112.20460783059274	2.745181210653486
112.52233424794153	2.807629002242006
112.52233424794153	2.7476498855650435
112.52233424794153	2.7476538653136506
112.52233424794153	2.807625249533841
114.60391713225101	4.60608020841573
114.76330652303214	10.979144734136987
114.76330652303214	10.650129046932001
114.76330652303214	10.979155855398897
114.76330652303214	10.65014206800714
115.30306938879149	5.086884944199367
115.30306938879149	5.182794431909295
115.30306938879149	5.182822258171837
115.30306938879149	5.086915608640769
115.51952376872613	3.059855019161632
115.51952376872613	3.1570802693916193
115.51952376872613	3.059877496106568
115.51952376872613	3.1571100674609323
116.40505986304463	5.035108400911847
116.40505986304463	5.1264648304586835
116.40505986304463	5.035099361368762
116.40505986304463	5.12646507318787
116.48022740915451	0.29456446649565116
116.48022740915451	0.29456389882684497
116.52392133746966	0.2912398968122541
116.52392133746966	0.29124448340089887
116.59965718575421	4.040046387023163
116.8291628237665	3.6076956855591513
116.8291628237665	3.6335091362881826
116.8291628237665	3.6076963931968735
116.8291628237665	3.633511506318837
117.46933548643496	0.4318476799955579
117.46933548643496	0.4318474313101779
117.81079080819998	4.825781250723427
117.81079080819998	4.4904929694086455
117.81079080819998	4.490485395636682
117.81079080819998	4.825770964814742
117.86669555062144	0.7719962577991241
117.86669555062144	1.1283966505934824
117.86669555062144	0.7719991111151737
117.86669555062144	1.1283936625241457
118.01861567196335	9.934336966634325
118.01861567196335	10.692088575617989
118.01861567196335	9.934334811879085
118.01861567196335	10.692092967808064
118.17676264719519	1.5150752078721845
118.17676264719519	1.365485576198958
118.17676264719519	1.3655055299269523
118.17676264719519	1.5150545413263476
118.24126426488294	1.5043146484021517
118.24126426488294	1.800440089165881
118.24126426488294	1.8004399472035004
118.24126426488294	1.5043172321280673
118.43212940407238	1.388150548998635
118.43212940407238	1.3926564224189242
118.43212940407238	1.3926642955106654
118.43212940407238	1.3881504812450545
118.46740261265332	0.37135077368029723
118.46740261265332	0.37135078093022056
118.55369902502478	0.5251322591094973
118.55369902502478	0.6970546154764965
118.57674735919201	1.383533922402241
118.57674735919201	1.3835226023615186
118.76345437448809	0.6001416934434267
118.84553016231854	1.3231376885306334
118.84553016231854	1.3444562982250738
118.84553016231854	1.3444627837110996
118.84553016231854	1.3231426884624216
118.95383994483394	3.116569561793748
118.95383994483394	3.4850267687023404
118.95383994483394	3.4850214990640977
118.95383994483394	3.1165725164383318
119.24808534785436	1.291140065983686
119.24808534785436	1.0219005391817775
119.24808534785436	1.29114151419416
119.24808534785436	1.021897055442015
119.43937023282449	1.6292633216857044
119.43937023282449	1.6727312278726418
119.43937023282449	1.6292557516268487
119.43937023282449	1.672728052347395
119.62764999365602	2.8179187224644773
119.62764999365602	3.340715491956077
120.45670643408084	1.5566291247556037
120.45670643408084	1.5566299863988802
120.45670643408084	1.5289898955924075
120.45670643408084	1.5289890232866261
120.52282006077942	0.4356961973205869
120.52282006077942	0.2770795027132484
120.52282006077942	0.4356965195571437
120.52282006077942	0.2770852623907916
120.67046358290463	1.6926602556639099
120.67046358290463	1.6926625740216774
120.7131750704944	3.714749312415857
120.7131750704944	4.174849900685305
120.88485424546454	16.299031841046048
120.88485424546454	16.299037782214484
121.55160936447777	0.3716339603557103
121.55160936447777	0.37163402852189364
121.55160936447777	0.23298522722969645
121.55160936447777	0.23298443909059477
121.6166831324466	11.450446346349679
121.6166831324466	11.450391074166513
121.74469173008033	15.47296135509206
121.74469173008033	15.472967510505098
122.31183476070751	4.71780518777394
122.31183476070751	4.717799519054874
122.49709188738711	4.737533001338494
122.49709188738711	4.7375139854015105
122.65951549034853	0.16274595441801873
122.65951549034853	0.25806204128030835
122.65951549034853	0.16274677268681778
122.65951549034853	0.258063119844985
122.92514476316848	4.142660936819954
122.92514476316848	4.111782631388696
122.92514476316848	4.142675793030851
122.92514476316848	4.111774409258948
123.18274470351241	11.657522184892846
123.18274470351241	11.729080264367479
123.41532088975521	7.212345683213687
123.41532088975521	7.21234053484814
123.62671703972497	8.005289391598785
123.62671703972497	8.005230371437985
123.62671703972497	7.78181124281281
123.62671703972497	7.781866390830459
123.8046876696281	4.617859407587314
123.8046876696281	4.617858702855505
123.8046876696281	4.622140280259476
123.8046876696281	4.622147050326717
124.12225164936366	7.492019430244601
124.12225164936366	7.5360959441807545
124.28942522352143	5.061501993901355
124.28942522352143	5.061505078105911
124.38530711362388	0.3028798037510247
124.38530711362388	0.42703637819484064
124.38530711362388	0.4270321681949309
124.38530711362388	0.30288459480046903
124.52757449546759	0.5480728650740058
124.52757449546759	0.6176860784003824
124.52757449546759	0.6176844680130748
124.52757449546759	0.5480735536125986
124.65736459779629	5.335315521352244
124.65736459779629	5.259278566887105
125.18484486743036	4.487623873162675
125.18484486743036	4.834396504467795
125.18484486743036	4.834392126738709
125.18484486743036	4.487621227272413
125.34852384176025	1.4934383320216131
125.34852384176025	1.931435665356647
125.34852384176025	1.9314600526338583
125.34852384176025	1.493455693938705
125.46812494595893	10.560773676129212
125.46812494595893	10.560785895780688
125.46812494595893	11.20108199914284
125.46812494595893	11.201092894636075
125.60455920498588	0.6320220405645021
125.60455920498588	0.6320311535921915
125.60455920498588	0.7470712218981898
125.60455920498588	0.7470618702552823
126.14746423838132	4.0626095614335425
126.14746423838132	4.062608271255413
126.14746423838132	4.599066301500274
126.14746423838132	4.5990628154238
126.41303821181927	0.48973998722436524
126.41303821181927	0.38837644384851094
126.41303821181927	0.3883792631777934
126.41303821181927	0.4897378791300524
126.57372044785384	0.5486032750220488
126.57372044785384	0.799319259809433
126.57372044785384	0.7993140725424015
126.57372044785384	0.5485972316761282
126.62102840543905	1.9174480785378387
126.62102840543905	1.4447515981360615
126.62102840543905	1.9174494517757257
126.62102840543905	1.444739619859233
126.64208951624973	0.6116246780534389
126.64208951624973	0.6116268272011938
126.69624099444633	0.6972734404025371
126.69624099444633	0.6001893995105634
126.69624099444633	0.6001883912060064
126.69624099444633	0.6972746224285012
126.8254068150413	0.6335087717268817
126.8254068150413	0.6796829461704197
127.58814692538773	3.445893158323157
127.58814692538773	3.4458910239671305
127.58814692538773	3.772151708610896
127.58814692538773	3.772154243124296
127.89985498958002	3.120808242172963
127.89985498958002	2.9395702992714026
127.89985498958002	2.939561752343195
127.89985498958002	3.1208012172031596
128.7821113317141	4.74531046148714
128.7821113317141	5.099816452835912
128.7821113317141	5.09981669723969
128.7821113317141	4.745313439994677
128.9236005354417	2.184518884882043
128.9236005354417	1.7957877830693565
128.9236005354417	1.7957902709975766
128.9236005354417	2.184520267910847
129.3627692710499	15.899966955062716
129.3627692710499	16.00440987617205
129.3627692710499	16.00446276682698
129.3627692710499	15.9000055680243
129.97235075033262	12.415185171441177
129.97235075033262	12.307594865147557
129.97235075033262	12.415110674223042
129.97235075033262	12.307535556564067
130.3194758381382	15.15323392180342
130.3194758381382	15.423515972260809
130.3194758381382	15.153217682893821
130.3194758381382	15.423522211513484
130.95308060414413	5.12798580750126
130.95308060414413	5.268429451696095
130.95308060414413	5.127965028542726
130.95308060414413	5.268442493845692
131.52379476773683	12.072969886724502
131.52379476773683	12.072966362182838
131.52379476773683	11.559521603606296
131.52379476773683	11.559520757046371
131.9812931890692	7.861064285572372
131.9812931890692	7.861069911059779
131.9812931890692	8.161496298333985
131.9812931890692	8.161486793231477
132.57699592251382	8.255025559188274
132.57699592251382	8.255029560912224
132.57699592251382	7.788167988156594
132.57699592251382	7.7881730797369775
132.76673981516512	4.656008481626196
132.76673981516512	5.074431948363602
132.76673981516512	5.074464361282677
132.76673981516512	4.656024936833647
133.0202582726985	0.34117096526366764
133.0202582726985	0.3411716502872989
133.17959237173358	6.306289310945815
133.17959237173358	6.7240993159429765
133.17959237173358	6.306282604545672
133.17959237173358	6.7240987234108855
133.21866854510063	8.575570384394135
133.21866854510063	9.158153428357288
133.21866854510063	8.575564445427007
133.21866854510063	9.158142564154392
133.50351774776428	0.7101599051562393
133.50351774776428	0.7101662699590999
133.70351737746338	2.1735221808064655
133.70351737746338	2.173527714532332
133.70351737746338	2.1386571666254497
133.70351737746338	2.1386524210017397
135.06417652775392	0.24539552494444158
135.06417652775392	0.24539481500395943
135.43749306523014	1.618918128815225
135.43749306523014	1.626963211708001
135.43749306523014	1.6269727782662267
135.43749306523014	1.6189179764586417
135.64307154975836	0.68948856837732
135.64307154975836	0.6894909839765202
135.64307154975836	0.6504131712348739
135.64307154975836	0.6504113847977275
135.8850840154855	0.9498340908407608
135.8850840154855	0.9498275963546259
135.8850840154855	1.0279121716030544
135.8850840154855	1.0279218821688196
136.03878722099418	1.6911129306211978
136.03878722099418	2.226696268436871
137.1662892170578	1.148278802063386
137.1662892170578	1.1482634487790537
137.1662892170578	1.3008882529742738
137.1662892170578	1.3008962535973867
137.57209321477066	1.4538538822150469
137.57209321477066	1.4368278356597368
137.57209321477066	1.4368219347803421
137.57209321477066	1.4538490198901997
137.84562487823098	1.6034970368363421
137.84562487823098	1.603497254954806
138.09467316165512	0.5322588937648564
138.09467316165512	0.5322589727307223
138.09467316165512	0.3269915717005181
138.09467316165512	0.3269986330089325
138.34053136660444	4.536203417294668
138.34053136660444	5.13616848060167
138.47917678496842	1.2156745570322203
138.47917678496842	1.2156729965815543
138.47917678496842	1.0913114723202337
138.47917678496842	1.0913136788304203
138.98222706679152	0.15650332444831622
138.98222706679152	0.15650471132653632
138.98222706679152	0.2468229252854193
138.98222706679152	0.24682237763488274
140.43345021673827	0.10953903111385159
140.43345021673827	0.10954040412646615
140.43345021673827	0.22568239328250933
140.43345021673827	0.22568469133248575
140.8970143136775	0.33506211563979293
140.8970143136775	0.20652424487113843
140.8970143136775	0.3350607164149598
140.8970143136775	0.2065231945338253
141.18997917619458	5.4291620843292785
141.18997917619458	5.429157880698024
141.75496419650432	4.208057775872903
141.75496419650432	4.208097853881099
141.75496419650432	4.067975649214664
141.75496419650432	4.068005361496339
141.83919609430174	5.521609562073321
141.83919609430174	5.521606033539003
142.19932930248712	10.405269288595035
142.19932930248712	10.094469648086749
142.19932930248712	10.094398079847256
142.19932930248712	10.405192350178215
142.77727377105927	2.256770402146852
142.77727377105927	2.256801041946325
142.95772928349103	4.713161732172018
142.95772928349103	4.696168392053076
142.95772928349103	4.713169808666245
142.95772928349103	4.696179984857934
143.43396263009095	0.7285387839089635
143.43396263009095	0.8266389098110953
143.43396263009095	0.8266411963458943
143.43396263009095	0.7285397239892268
143.76342074766688	0.8521159794701035
143.76342074766688	0.8521236580357086
143.76342074766688	1.290134981479327
143.76342074766688	1.2901232049652631
143.84809787278851	6.893413027271286
143.84809787278851	6.893418653921774
143.84809787278851	7.245853843636829
143.84809787278851	7.245856412109219
144.0428955685061	0.9483715948893574
144.0428955685061	0.9483809660521958
144.0428955685061	0.7029663144746242
144.0428955685061	0.7029575490987732
144.17892328333798	5.131904460723124
144.17892328333798	5.131920621818739
144.73676586812905	0.8166826480373153
144.73676586812905	0.8166856451105317
144.73676586812905	0.594740515829181
144.73676586812905	0.5947416373043612
144.74765276227097	14.287554916968114
144.74765276227097	15.206340763892252
144.74765276227097	14.287538082505582
144.74765276227097	15.206355709981748
145.02151352270135	2.3265268309814373
145.02151352270135	2.5340878978049974
145.19557856804465	6.385570742049377
145.19557856804465	6.385581397788008
145.19557856804465	6.915119138833517
145.19557856804465	6.915133855116959
145.67334442680837	4.072107143601699
145.67334442680837	4.848397477151301
145.67334442680837	4.848342772604482
145.67334442680837	4.072071724697616
145.77899887942962	15.328393039944777
145.77899887942962	15.735318410947134
145.97691582774348	0.687408689486197
145.97691582774348	0.6874013376905899
145.97691582774348	0.7379522434407638
145.97691582774348	0.7379570676124358
146.66061091153077	2.6728370594331077
146.66061091153077	2.672831075243064
146.66061091153077	2.276343744610648
146.66061091153077	2.2763509138427644
147.18180949646123	4.089261387638195
147.18180949646123	4.303140601434746
147.18180949646123	4.303183967355925
147.18180949646123	4.089216649754714
148.0242508453618	2.6028219055834367
148.0242508453618	2.602821976908711
148.0242508453618	1.9406555416768942
148.0242508453618	1.9406532285496962
148.20267846853622	22.359693669855247
148.84595220535434	4.345345751332646
148.84595220535434	4.448175770983118
148.84595220535434	4.448169825510355
148.84595220535434	4.345352103987088
149.26309370564937	2.541888088640749
149.26309370564937	2.0736480274143974
149.26309370564937	2.5418963813810813
149.26309370564937	2.0736476842194382
149.62432356619166	7.072698212718002
149.62432356619166	7.072702851985259
149.62432356619166	7.630987626061325
149.62432356619166	7.630988033799859
151.5776917651688	8.624716754650045
151.5776917651688	8.624688942316924
151.65995475525054	8.418059969504654
151.65995475525054	8.418087989575989
152.75772503603187	8.218690072312267
152.75772503603187	8.21867934078849
152.9920670199147	29.101462311143603
154.15784939815853	8.509145967631909
154.15784939815853	8.509119097914366
154.17676637255528	9.721705114617773
154.17676637255528	9.515415461815627
154.17676637255528	9.721757161122222
154.17676637255528	9.51535795390029
155.12036527893284	8.436441748231598
155.12036527893284	8.436403616464906
155.12036527893284	8.078645127398193
155.12036527893284	8.078666318578874
155.46279288297276	0.6815068655452509
155.46279288297276	0.856864034883556
155.46279288297276	0.6814781143344361
155.46279288297276	0.8568861878060395
155.53757989127774	9.058935650123635
155.53757989127774	9.058942512403311
156.13114118939103	3.6173983750998757
156.13114118939103	3.6173400620215044
156.13114118939103	3.3482431435683453
156.13114118939103	3.3482886335551205
156.82502734783208	0.604915299257703
156.82502734783208	0.873563487906126
156.82502734783208	0.8735549817394606
156.82502734783208	0.604925057362213
156.90396063682175	9.028208788269252
156.90396063682175	9.028208647544949
157.0980438020699	8.217374098556522
157.0980438020699	8.309715130468224
158.28450772556457	8.052803967082827
158.28450772556457	9.382866742341031
158.28450772556457	8.0527788792624
158.28450772556457	9.382806001996402
158.363896583585	2.953404957509044
158.363896583585	2.9534150433465447
158.363896583585	3.0946795728889844
158.363896583585	3.094695390598163
158.65554848592964	17.27430998848457
158.65554848592964	16.83069867305933
159.167091012248	9.391395261890109
159.22607501593754	4.509852798548562
159.22607501593754	4.551153081191199
159.22607501593754	4.551151395849103
159.22607501593754	4.509849854023495
160.1292095584909	0.9728952237988245
160.1292095584909	1.2890475846014038
160.1292095584909	1.2890450716854018
160.1292095584909	0.9728901663631908
160.4747558225231	26.033301538665974
160.4747558225231	26.03331204711265
160.4747558225231	23.98819920617451
160.4747558225231	23.988203738206675
160.6779981548109	1.4415326025768471
160.6779981548109	1.4415311382576153
160.89655074936593	3.7919925124961398
160.89655074936593	3.7920443248867985
160.89655074936593	3.382878237015728
160.89655074936593	3.382928015984665
161.8192762296502	0.9419309822973062
161.8192762296502	0.9419319960704419
161.8192762296502	1.327271733279252
161.8192762296502	1.327270416588628
162.0027629155232	3.536684456043639
162.0027629155232	3.5367150942263033
162.0027629155232	4.805425415410193
162.0027629155232	4.805423290922645
162.54074384999691	1.6261413427499727
162.54074384999691	1.7524739743092945
162.61394095395127	2.3449109961094523
162.61394095395127	2.3449334870734275
162.61394095395127	2.158309978929105
162.61394095395127	2.1582952314406625
163.10535398592467	8.60636756911116
163.10535398592467	8.606375771765103
163.10535398592467	9.752289982098649
163.10535398592467	9.752305472134585
163.80419008678027	4.284983644641553
163.80419008678027	3.9314492555620952
163.80419008678027	3.9314418122584867
163.80419008678027	4.2849754581872315
164.47773185345991	9.022190219479173
164.47773185345991	9.022190656214798
164.61557455437486	39.42915219207454
164.61557455437486	38.55567253652979
165.4894005851705	46.80730985204658
165.4894005851705	46.80741152642852
166.12738117322874	44.4363215330871
166.12738117322874	44.4363784763657
166.7102363790544	16.043652132114516
166.7102363790544	14.636613052712216
166.7102363790544	14.636580186986363
166.7102363790544	16.04362319012252
168.5085713283415	2.8372280463829482
168.5085713283415	2.7676468736691255
168.5085713283415	2.767637720221138
168.5085713283415	2.8372149649369467
169.36894595774365	8.921444167335968
169.36894595774365	7.211060173189266
169.36894595774365	7.211070505010329
169.36894595774365	8.921449654706665
173.25197710572053	33.18542460059179
173.25197710572053	33.185399351187336
173.25197710572053	33.16858489005604
173.25197710572053	33.1686038687404
175.53847854304996	117.31367344881315
175.53847854304996	118.42418435016938
175.53847854304996	117.31423851448253
175.53847854304996	118.42490500316485
176.6880279371333	68.34016866599617
176.6880279371333	68.34037487072904
176.6880279371333	68.93522366852764
176.6880279371333	68.93545885300814